# P(GPa) 	    H per F unit (a.u)
8.3445153235974 -941.1401526836662
8.3445017296806 -941.1401528540903
8.3444879946072 -941.1401530262860
8.3444741183777 -941.1401532002535
8.3444601009915 -941.1401533759923
8.3444459424490 -941.1401535535031
8.3444316427501 -941.1401537327856
8.3444172018946 -941.1401539138398
8.3444026198827 -941.1401540966659
8.3443878967143 -941.1401542812640
8.3443730323897 -941.1401544676339
8.3443580269086 -941.1401546557760
8.3443428802710 -941.1401548456897
8.3443275924770 -941.1401550373757
8.3443121635265 -941.1401552308338
8.3442965934196 -941.1401554260640
8.3442808821565 -941.1401556230662
8.3442650297367 -941.1401558218408
8.3442490361605 -941.1401560223876
8.3442329014279 -941.1401562247067
8.3442166255388 -941.1401564287980
8.3442002084932 -941.1401566346618
8.3441836502913 -941.1401568422980
8.3441669509332 -941.1401570517066
8.3441501104184 -941.1401572628878
8.3441331287471 -941.1401574758414
8.3441160059195 -941.1401576905675
8.3440987419354 -941.1401579070665
8.3440813367947 -941.1401581253378
8.3440637904980 -941.1401583453820
8.3440461030447 -941.1401585671990
8.3440282744349 -941.1401587907886
8.3440103046685 -941.1401590161510
8.3439921937458 -941.1401592432865
8.3439739416667 -941.1401594721946
8.3439555484313 -941.1401597028758
8.3439370140394 -941.1401599353297
8.3439183384909 -941.1401601695570
8.3438995217860 -941.1401604055571
8.3438805639248 -941.1401606433304
8.3438614649070 -941.1401608828767
8.3438422247328 -941.1401611241963
8.3438228434025 -941.1401613672891
8.3438033209155 -941.1401616121551
8.3437836572719 -941.1401618587943
8.3437638524720 -941.1401621072071
8.3437439065158 -941.1401623573930
8.3437238194030 -941.1401626093524
8.3437035911341 -941.1401628630853
8.3436832217085 -941.1401631185918
8.3436627111262 -941.1401633758717
8.3436420593879 -941.1401636349251
8.3436212664929 -941.1401638957522
8.3436003324416 -941.1401641583528
8.3435792572338 -941.1401644227274
8.3435580408698 -941.1401646888754
8.3435366833491 -941.1401649567974
8.3435151846720 -941.1401652264933
8.3434935448385 -941.1401654979629
8.3434717638485 -941.1401657712064
8.3434498417022 -941.1401660462237
8.3434277783997 -941.1401663230153
8.3434055739402 -941.1401666015807
8.3433832283247 -941.1401668819201
8.3433607415525 -941.1401671640336
8.3433381136240 -941.1401674479214
8.3433153445390 -941.1401677335834
8.3432924342977 -941.1401680210195
8.3432693829000 -941.1401683102298
8.3432461903456 -941.1401686012144
8.3432228566350 -941.1401688939735
8.3431993817678 -941.1401691885067
8.3431757657442 -941.1401694848146
8.3431520085644 -941.1401697828968
8.3431281102279 -941.1401700827536
8.3431040707351 -941.1401703843849
8.3430798900857 -941.1401706877907
8.3430555682801 -941.1401709929711
8.3430311053178 -941.1401712999264
8.3430065011994 -941.1401716086561
8.3429817559244 -941.1401719191608
8.3429568694929 -941.1401722314400
8.3429318419051 -941.1401725454944
8.3429066731607 -941.1401728613232
8.3428813632600 -941.1401731789272
8.3428559122030 -941.1401734983061
8.3428303199893 -941.1401738194600
8.3428045866192 -941.1401741423888
8.3427787120928 -941.1401744670926
8.3427526964099 -941.1401747935716
8.3427265395704 -941.1401751218259
8.3427002415748 -941.1401754518553
8.3426738024226 -941.1401757836597
8.3426472221140 -941.1401761172397
8.3426205006489 -941.1401764525948
8.3425936380274 -941.1401767897253
8.3425666342496 -941.1401771286311
8.3425394893151 -941.1401774693123
8.3425122032243 -941.1401778117690
8.3424847759771 -941.1401781560013
8.3424572075734 -941.1401785020091
8.3424294980132 -941.1401788497925
8.3424016472969 -941.1401791993513
8.3423736554239 -941.1401795506860
8.3423455223945 -941.1401799037965
8.3423172482087 -941.1401802586826
8.3422888328663 -941.1401806153442
8.3422602763677 -941.1401809737821
8.3422315787126 -941.1401813339957
8.3422027399010 -941.1401816959851
8.3421737599330 -941.1401820597505
8.3421446388086 -941.1401824252919
8.3421153765278 -941.1401827926094
8.3420859730904 -941.1401831617029
8.3420564284968 -941.1401835325723
8.3420267427466 -941.1401839052181
8.3419969158401 -941.1401842796400
8.3419669477771 -941.1401846558382
8.3419368385576 -941.1401850338126
8.3419065881817 -941.1401854135632
8.3418761966492 -941.1401857950904
8.3418456639607 -941.1401861783939
8.3418149901155 -941.1401865634737
8.3417841751138 -941.1401869503300
8.3417532189558 -941.1401873389630
8.3417221216411 -941.1401877293723
8.3416908831702 -941.1401881215583
8.3416595035431 -941.1401885155208
8.3416279827593 -941.1401889112601
8.3415963208191 -941.1401893087763
8.3415645177224 -941.1401897080688
8.3415325734692 -941.1401901091383
8.3415004880597 -941.1401905119847
8.3414682614937 -941.1401909166080
8.3414358937716 -941.1401913230079
8.3414033848928 -941.1401917311850
8.3413707348576 -941.1401921411391
8.3413379436657 -941.1401925528704
8.3413050113176 -941.1401929663784
8.3412719378130 -941.1401933816636
8.3412387231523 -941.1401937987262
8.3412053673349 -941.1401942175657
8.3411718703611 -941.1401946381825
8.3411382322305 -941.1401950605766
8.3411044529439 -941.1401954847481
8.3410705325007 -941.1401959106969
8.3410364709013 -941.1401963384229
8.3410022681453 -941.1401967679266
8.3409679242329 -941.1401971992077
8.3409334391639 -941.1401976322663
8.3408988129385 -941.1401980671023
8.3408640455569 -941.1401985037160
8.3408291370186 -941.1401989421074
8.3407940873243 -941.1401993822765
8.3407588964732 -941.1401998242231
8.3407235644656 -941.1402002679476
8.3406880913018 -941.1402007134499
8.3406524769814 -941.1402011607299
8.3406167215046 -941.1402016097881
8.3405808248716 -941.1402020606240
8.3405447870818 -941.1402025132378
8.3405086081358 -941.1402029676295
8.3404722880332 -941.1402034237996
8.3404358267743 -941.1402038817474
8.3403992243589 -941.1402043414736
8.3403624807871 -941.1402048029777
8.3403255960591 -941.1402052662601
8.3402885701743 -941.1402057313207
8.3402514031332 -941.1402061981597
8.3402140949357 -941.1402066667769
8.3401766455817 -941.1402071371725
8.3401390550713 -941.1402076093465
8.3401013234046 -941.1402080832991
8.3400634505813 -941.1402085590298
8.3400254366017 -941.1402090365392
8.3399872814655 -941.1402095158272
8.3399489851729 -941.1402099968939
8.3399105477240 -941.1402104797390
8.3398719691186 -941.1402109643630
8.3398332493567 -941.1402114507655
8.3397943884384 -941.1402119389470
8.3397553863637 -941.1402124289070
8.3397162431325 -941.1402129206460
8.3396769587450 -941.1402134141640
8.3396375332010 -941.1402139094607
8.3395979665006 -941.1402144065364
8.3395582586437 -941.1402149053912
8.3395184096303 -941.1402154060250
8.3394784194606 -941.1402159084379
8.3394382881346 -941.1402164126298
8.3393980156519 -941.1402169186009
8.3393576020128 -941.1402174263513
8.3393170472173 -941.1402179358810
8.3392763512655 -941.1402184471897
8.3392355141570 -941.1402189602779
8.3391945358924 -941.1402194751455
8.3391534164712 -941.1402199917925
8.3391121558935 -941.1402205102187
8.3390707541595 -941.1402210304246
8.3390292112689 -941.1402215524101
8.3389875272220 -941.1402220761750
8.3389457020187 -941.1402226017195
8.3389037356589 -941.1402231290436
8.3388616281426 -941.1402236581476
8.3388193794699 -941.1402241890312
8.3387769896408 -941.1402247216944
8.3387344586552 -941.1402252561377
8.3386917865135 -941.1402257923606
8.3386489732150 -941.1402263303635
8.3386060187602 -941.1402268701463
8.3385629231488 -941.1402274117091
8.3385196863811 -941.1402279550520
8.3384763084571 -941.1402285001747
8.3384327893766 -941.1402290470776
8.3383891291396 -941.1402295957606
8.3383453277460 -941.1402301462238
8.3383013851962 -941.1402306984671
8.3382573014900 -941.1402312524908
8.3382130766270 -941.1402318082947
8.3381687106081 -941.1402323658790
8.3381242034325 -941.1402329252436
8.3380795551004 -941.1402334863886
8.3380347656120 -941.1402340493140
8.3379898349671 -941.1402346140200
8.3379447631657 -941.1402351805064
8.3378995502081 -941.1402357487734
8.3378541960939 -941.1402363188211
8.3378087008232 -941.1402368906495
8.3377630643962 -941.1402374642582
8.3377172868127 -941.1402380396480
8.3376713680726 -941.1402386168185
8.3376253081763 -941.1402391957698
8.3375791071237 -941.1402397765019
8.3375327649145 -941.1402403590149
8.3374862815487 -941.1402409433089
8.3374396570266 -941.1402415293837
8.3373928913481 -941.1402421172396
8.3373459845131 -941.1402427068765
8.3372989365219 -941.1402432982946
8.3372517473741 -941.1402438914939
8.3372044170697 -941.1402444864741
8.3371569456091 -941.1402450832356
8.3371093329919 -941.1402456817784
8.3370615792183 -941.1402462821027
8.3370136842883 -941.1402468842080
8.3369656482021 -941.1402474880947
8.3369174709592 -941.1402480937629
8.3368691525598 -941.1402487012126
8.3368206930042 -941.1402493104437
8.3367720922919 -941.1402499214563
8.3367233504234 -941.1402505342506
8.3366744673985 -941.1402511488265
8.3366254432172 -941.1402517651838
8.3365762778792 -941.1402523833232
8.3365269713848 -941.1402530032441
8.3364775237340 -941.1402536249467
8.3364279349269 -941.1402542484312
8.3363782049633 -941.1402548736977
8.3363283338434 -941.1402555007460
8.3362783215669 -941.1402561295761
8.3362281681338 -941.1402567601881
8.3361778735445 -941.1402573925824
8.3361274377987 -941.1402580267586
8.3360768608966 -941.1402586627167
8.3360261428381 -941.1402593004572
8.3359752836230 -941.1402599399800
8.3359242832514 -941.1402605812848
8.3358731417234 -941.1402612243718
8.3358218590390 -941.1402618692412
8.3357704351983 -941.1402625158929
8.3357188702013 -941.1402631643271
8.3356671640475 -941.1402638145435
8.3356153167374 -941.1402644665425
8.3355633282708 -941.1402651203240
8.3355111986478 -941.1402657758879
8.3354589278685 -941.1402664332343
8.3354065159327 -941.1402670923635
8.3353539628404 -941.1402677532755
8.3353012685917 -941.1402684159700
8.3352484331866 -941.1402690804472
8.3351954566251 -941.1402697467072
8.3351423389070 -941.1402704147501
8.3350890800327 -941.1402710845758
8.3350356800018 -941.1402717561845
8.3349821388146 -941.1402724295760
8.3349284564708 -941.1402731047506
8.3348746329706 -941.1402737817082
8.3348206683140 -941.1402744604485
8.3347665625011 -941.1402751409722
8.3347123155316 -941.1402758232791
8.3346579274057 -941.1402765073692
8.3346033981233 -941.1402771932425
8.3345487276846 -941.1402778808988
8.3344939160894 -941.1402785703386
8.3344389633380 -941.1402792615618
8.3343838694298 -941.1402799545682
8.3343286343654 -941.1402806493583
8.3342732581445 -941.1402813459315
8.3342177407670 -941.1402820442886
8.3341620822333 -941.1402827444288
8.3341062825431 -941.1402834463529
8.3340503416966 -941.1402841500606
8.3339942596935 -941.1402848555517
8.3339380365339 -941.1402855628266
8.3338816722179 -941.1402862718854
8.3338251667455 -941.1402869827280
8.3337685201168 -941.1402876953543
8.3337117323316 -941.1402884097644
8.3336548033899 -941.1402891259585
8.3335977332918 -941.1402898439366
8.3335405220372 -941.1402905636986
8.3334831696264 -941.1402912852445
8.3334256760589 -941.1402920085748
8.3333680413350 -941.1402927336889
8.3333102654548 -941.1402934605874
8.3332523484180 -941.1402941892698
8.3331942902249 -941.1402949197366
8.3331360908754 -941.1402956519875
8.3330777503694 -941.1402963860228
8.3330192687069 -941.1402971218424
8.3329606458880 -941.1402978594465
8.3329018819127 -941.1402985988350
8.3328429767811 -941.1402993400078
8.3327839304928 -941.1403000829653
8.3327247430483 -941.1403008277072
8.3326654144473 -941.1403015742338
8.3326059446899 -941.1403023225449
8.3325463337759 -941.1403030726408
8.3324865817056 -941.1403038245214
8.3324266884787 -941.1403045781867
8.3323666540957 -941.1403053336367
8.3323064785561 -941.1403060908716
8.3322461618599 -941.1403068498914
8.3321857040075 -941.1403076106960
8.3321251049985 -941.1403083732857
8.3320643648330 -941.1403091376603
8.3320034835113 -941.1403099038200
8.3319424610332 -941.1403106717647
8.3318812973985 -941.1403114414944
8.3318199926074 -941.1403122130093
8.3317585466598 -941.1403129863097
8.3316969595559 -941.1403137613951
8.3316352312953 -941.1403145382656
8.3315733618788 -941.1403153169215
8.3315113513055 -941.1403160973629
8.3314491995758 -941.1403168795896
8.3313869066896 -941.1403176636016
8.3313244726470 -941.1403184493993
8.3312618974480 -941.1403192369824
8.3311991810929 -941.1403200263510
8.3311363235810 -941.1403208175051
8.3310733249127 -941.1403216104451
8.3310101850877 -941.1403224051707
8.3309469041066 -941.1403232016819
8.3308834819690 -941.1403239999789
8.3308199186750 -941.1403248000616
8.3307562142248 -941.1403256019303
8.3306923686178 -941.1403264055848
8.3306283818545 -941.1403272110251
8.3305642539347 -941.1403280182514
8.3304999848585 -941.1403288272638
8.3304355746259 -941.1403296380623
8.3303710232371 -941.1403304506466
8.3303063306916 -941.1403312650173
8.3302414969895 -941.1403320811738
8.3301765221311 -941.1403328991169
8.3301114061163 -941.1403337188459
8.3300461489452 -941.1403345403613
8.3299807506175 -941.1403353636631
8.3299152111335 -941.1403361887511
8.3298495304930 -941.1403370156256
8.3297837086961 -941.1403378442865
8.3297177457426 -941.1403386747338
8.3296516416329 -941.1403395069676
8.3295853963665 -941.1403403409881
8.3295190099440 -941.1403411767951
8.3294524823650 -941.1403420143888
8.3293858136294 -941.1403428537691
8.3293190037374 -941.1403436949362
8.3292520526890 -941.1403445378901
8.3291849604841 -941.1403453826306
8.3291177271229 -941.1403462291580
8.3290503526053 -941.1403470774724
8.3289828369311 -941.1403479275737
8.3289151801005 -941.1403487794618
8.3288473821135 -941.1403496331369
8.3287794429701 -941.1403504885992
8.3287113626703 -941.1403513458483
8.3286431412139 -941.1403522048848
8.3285747786013 -941.1403530657084
8.3285062748320 -941.1403539283192
8.3284376299065 -941.1403547927172
8.3283688438244 -941.1403556589025
8.3282999165860 -941.1403565268751
8.3282308481912 -941.1403573966350
8.3281616386398 -941.1403582681824
8.3280922879321 -941.1403591415171
8.3280227960679 -941.1403600166394
8.3279531630474 -941.1403608935491
8.3278833888703 -941.1403617722466
8.3278134735368 -941.1403626527314
8.3277434170468 -941.1403635350040
8.3276732194005 -941.1403644190643
8.3276028805977 -941.1403653049123
8.3275324006385 -941.1403661925481
8.3274617795230 -941.1403670819716
8.3273910172508 -941.1403679731829
8.3273201138222 -941.1403688661823
8.3272490692373 -941.1403697609693
8.3271778834959 -941.1403706575445
8.3271065565982 -941.1403715559077
8.3270350885439 -941.1403724560588
8.3269634793332 -941.1403733579982
8.3268917289661 -941.1403742617255
8.3268198374425 -941.1403751672410
8.3267478047625 -941.1403760745449
8.3266756309262 -941.1403769836368
8.3266033159333 -941.1403778945171
8.3265308597840 -941.1403788071855
8.3264582624784 -941.1403797216425
8.3263855240161 -941.1403806378879
8.3263126443975 -941.1403815559216
8.3262396236227 -941.1403824757440
8.3261664616913 -941.1403833973548
8.3260931586034 -941.1403843207542
8.3260197143590 -941.1403852459421
8.3259461289583 -941.1403861729186
8.3258724024011 -941.1403871016840
8.3257985346876 -941.1403880322380
8.3257245258176 -941.1403889645808
8.3256503757911 -941.1403898987123
8.3255760846081 -941.1403908346329
8.3255016522687 -941.1403917723420
8.3254270787730 -941.1403927118404
8.3253523641207 -941.1403936531276
8.3252775083123 -941.1403945962039
8.3252025113472 -941.1403955410690
8.3251273732257 -941.1403964877234
8.3250520939477 -941.1403974361668
8.3249766735132 -941.1403983863996
8.3249011119223 -941.1403993384214
8.3248254091754 -941.1404002922325
8.3247495652717 -941.1404012478329
8.3246735802116 -941.1404022052226
8.3245974539951 -941.1404031644016
8.3245211866219 -941.1404041253701
8.3244447780926 -941.1404050881280
8.3243682284067 -941.1404060526754
8.3242915375647 -941.1404070190123
8.3242147055659 -941.1404079871388
8.3241377324108 -941.1404089570550
8.3240606180992 -941.1404099287608
8.3239833626312 -941.1404109022562
8.3239059660067 -941.1404118775414
8.3238284282261 -941.1404128546163
8.3237507492887 -941.1404138334811
8.3236729291950 -941.1404148141357
8.3235949679448 -941.1404157965803
8.3235168655381 -941.1404167808147
8.3234386219751 -941.1404177668392
8.3233602372558 -941.1404187546534
8.3232817113800 -941.1404197442579
8.3232030443475 -941.1404207356525
8.3231242361587 -941.1404217288373
8.3230452868135 -941.1404227238120
8.3229661963119 -941.1404237205771
8.3228869646538 -941.1404247191324
8.3228075918396 -941.1404257194781
8.3227280778685 -941.1404267216139
8.3226484227411 -941.1404277255402
8.3225686264574 -941.1404287312571
8.3224886890171 -941.1404297387643
8.3224086104205 -941.1404307480618
8.3223283906676 -941.1404317591500
8.3222480297580 -941.1404327720287
8.3221675276920 -941.1404337866983
8.3220868844697 -941.1404348031582
8.3220061000908 -941.1404358214090
8.3219251745556 -941.1404368414505
8.3218441078639 -941.1404378632827
8.3217629000158 -941.1404388869057
8.3216815510113 -941.1404399123197
8.3216000608503 -941.1404409395245
8.3215184295329 -941.1404419685203
8.3214366570591 -941.1404429993069
8.3213547434288 -941.1404440318846
8.3212726886421 -941.1404450662534
8.3211904926990 -941.1404461024132
8.3211081555995 -941.1404471403644
8.3210256773434 -941.1404481801064
8.3209430579309 -941.1404492216400
8.3208602973622 -941.1404502649646
8.3207773956369 -941.1404513100805
8.3206943527552 -941.1404523569878
8.3206111687169 -941.1404534056865
8.3205278435223 -941.1404544561765
8.3204443771712 -941.1404555084580
8.3203607696640 -941.1404565625312
8.3202770209999 -941.1404576183957
8.3201931311797 -941.1404586760518
8.3201091002029 -941.1404597354996
8.3200249280697 -941.1404607967391
8.3199406147800 -941.1404618597702
8.3198561603341 -941.1404629245930
8.3197715647315 -941.1404639912076
8.3196868279727 -941.1404650596141
8.3196019500572 -941.1404661298125
8.3195169309854 -941.1404672018027
8.3194317707573 -941.1404682755848
8.3193464693727 -941.1404693511589
8.3192610268316 -941.1404704285251
8.3191754431340 -941.1404715076833
8.3190897182800 -941.1404725886335
8.3190038522696 -941.1404736713761
8.3189178451029 -941.1404747559108
8.3188316967796 -941.1404758422376
8.3187454072999 -941.1404769303566
8.3186589766638 -941.1404780202682
8.3185724048712 -941.1404791119720
8.3184856919223 -941.1404802054681
8.3183988378169 -941.1404813007566
8.3183118425551 -941.1404823978377
8.3182247061368 -941.1404834967112
8.3181374285620 -941.1404845973771
8.3180500098309 -941.1404856998358
8.3179624499433 -941.1404868040871
8.3178747488991 -941.1404879101311
8.3177869066989 -941.1404890179678
8.3176989233420 -941.1404901275970
8.3176107988288 -941.1404912390193
8.3175225331589 -941.1404923522342
8.3174341263327 -941.1404934672421
8.3173455783500 -941.1404945840429
8.3172568892111 -941.1404957026366
8.3171680589158 -941.1404968230233
8.3170790874638 -941.1404979452028
8.3169899748554 -941.1404990691758
8.3169007210907 -941.1405001949416
8.3168113261692 -941.1405013225007
8.3167217900919 -941.1405024518527
8.3166321128578 -941.1405035829982
8.3165422944673 -941.1405047159369
8.3164523349203 -941.1405058506689
8.3163622342169 -941.1405069871943
8.3162719923570 -941.1405081255131
8.3161816093408 -941.1405092656252
8.3160910851682 -941.1405104075308
8.3160004198392 -941.1405115512299
8.3159096133536 -941.1405126967227
8.3158186657117 -941.1405138440089
8.3157275769130 -941.1405149930887
8.3156363469583 -941.1405161439623
8.3155449758473 -941.1405172966296
8.3154534635795 -941.1405184510908
8.3153618101553 -941.1405196073454
8.3152700155747 -941.1405207653939
8.3151780798377 -941.1405219252366
8.3150860029442 -941.1405230868729
8.3149937848943 -941.1405242503033
8.3149014256883 -941.1405254155277
8.3148089253255 -941.1405265825460
8.3147162838063 -941.1405277513585
8.3146235011306 -941.1405289219649
8.3145305772985 -941.1405300943658
8.3144375123101 -941.1405312685606
8.3143443061654 -941.1405324445498
8.3142509588641 -941.1405336223331
8.3141574704062 -941.1405348019108
8.3140638407919 -941.1405359832829
8.3139700700213 -941.1405371664493
